 wav[um] flux[uJy] fluxerr[uJy] wave_AA flux_flam fluxerr_flam wave_AA_rest
0 3.462541735546464 -13.678993225097656 5.2708067893981925 34625.41735546464 -3.422830202507829e-19 1.3188892174633458e-19 2595.6084974111427
1 3.462541981426821 -21.97360038757324 5.262961864471436 34625.41981426821 -5.498349998785401e-19 1.3169260317252905e-19 2595.6086817292507
2 3.750474716345416 -2.1520884037017822 3.2245373725891118 37504.74716345416 -4.5899597589164514e-20 6.877271749547112e-20 2811.45031210301
3 3.8997208032325936 0.31162747740745544 3.0774359703063965 38997.208032325936 6.147378705028965e-21 6.070762600056619e-20 2923.3289379554676
4 4.010204047847489 -2.1646571159362793 2.800760507583618 40102.0404784749 -4.038103314054058e-20 5.22473522678594e-20 3006.149960905165
5 4.112374932227562 1.661777138710022 2.639094829559326 41123.74932227562 2.9478720434208643e-20 4.6815626998176203e-20 3082.7398292560433
6 4.210148447891012 1.1646634340286255 2.3789353370666504 42101.48447891012 1.9711826910585233e-20 4.026327282683454e-20 3156.0333192586295
7 4.303364999464556 -1.3653903007507324 1.918805122375488 43033.64999464556 -2.2118807123395283e-20 3.1083918192381035e-20 3225.910794201316
8 4.392230557750386 0.7686052322387694 1.472302794456482 43922.30557750386 1.195237837471719e-20 2.2895394597093533e-20 3292.526654985297
9 4.4771726571611 1.714578628540039 0.8740806579589844 44771.726571611 2.5660846293161536e-20 1.3081726925996861e-20 3356.2013921747375
10 4.55865354556191 0.021328644827008247 0.45042821764945984 45586.5354556191 3.0790117213862433e-22 6.502399815058182e-21 3417.2815184122264
11 4.637135470818032 0.1056756153702736 0.18481968343257904 46371.354708180326 1.4743360089392398e-21 2.578516467499581e-21 3476.1135463403543
12 4.713080680794672 0.02947350218892097 0.09495792537927629 47130.80680794672 3.980551527064866e-22 1.2824567384376654e-21 3533.043988601703
13 4.786907292296954 0.07882329076528549 0.06777089089155197 47869.07292296954 1.0319669378919156e-21 8.872671779184719e-22 3588.386276084673
14 4.858838376069904 -0.17197886109352112 0.05273784324526786 48588.383760699035 -2.185402408342144e-21 6.701603261362728e-22 3642.3076282383086
15 4.928978776571737 -0.07882208377122879 0.04356418550014496 49289.787765717374 -9.733191546910644e-22 5.379438626473246e-22 3694.8866391092483
16 4.997414813789307 -0.01853128895163536 0.039834167808294296 49974.14813789307 -2.226055986806769e-22 4.785046952780568e-22 3746.1880163338133
17 5.064232807709461 0.003478874685242772 0.0394696407020092 50642.32807709461 4.0694218717087375e-23 4.616970534252887e-22 3796.2764675483213
18 5.129519078319048 -0.03035555779933929 0.03872523456811905 51295.19078319048 -3.461036453342204e-22 4.415318255407084e-22 3845.216700389092
19 5.193359945604919 -0.02422412857413292 0.03969563543796539 51933.59945604919 -2.694465141703783e-22 4.415370635028411e-22 3893.073422492443
20 5.255841729553918 -0.04154970496892929 0.040296770632267 52558.41729553918 -4.512369359940104e-22 4.37629853789697e-22 3939.911341494691
21 5.317050750152893 0.006972643081098794 0.04279492795467377 53170.507501528926 7.399069018778021e-23 4.541213739286445e-22 3985.7951650321534
22 5.377073327388688 0.0037651478778570886 0.04313776269555092 53770.73327388688 3.906711803456276e-23 4.475967801650347e-22 4030.7896007411455
23 5.435995781248152 0.032903097569942474 0.05238916352391242 54359.957812481516 3.340410329696742e-22 5.31868778091323e-22 4074.959356257985
24 5.4939044317181205 -0.04199792817234993 0.05591776594519615 54939.04431718121 -4.1743313572165796e-22 5.557876161238957e-22 4118.369139218981
25 5.550878153595451 -0.07501449435949324 0.05815043300390244 55508.78153595451 -7.303702120734456e-22 5.661751698503327e-22 4161.078076158509
26 5.606962914858029 -0.013264469802379608 0.05833093076944351 56069.62914858029 -1.2657728695802625e-22 5.56627673215258e-22 4203.1206258306065
27 5.662184732457819 -0.08500844985246657 0.06036560237407684 56621.847324578186 -7.9545438949563265e-22 5.648624750403461e-22 4244.516291197765
28 5.716566496754062 -0.12198523432016373 0.05815441161394119 57165.66496754062 -1.119845218743876e-21 5.338673992608843e-22 4285.282231449822
29 5.770131098105998 -0.023768195882439613 0.06213611736893654 57701.31098105998 -2.1416382347492983e-22 5.598787782395439e-22 4325.43560577661
30 5.822901426872866 0.0021856683306396008 0.06600882858037949 58229.01426872866 1.933867157342865e-23 5.840424363421853e-22 4364.993573367965
31 5.874900373413904 0.20110623538494113 0.06880710273981094 58749.003734139034 1.748017509434671e-21 5.980720594388201e-22 4403.973293413721
32 5.926150828088352 -0.1690514087677002 0.06950381398200989 59261.50828088352 -1.4440912871679458e-21 5.937238436994279e-22 4442.391925103712
33 5.97667568125545 -0.126622274518013 0.0735713019967079 59766.75681255449 -1.0634375359071058e-21 6.178887909467031e-22 4480.266627627773
34 6.026497823274436 -0.064195916056633 0.07579806447029114 60264.97823274436 -5.302719407943837e-22 6.261081580276963e-22 4517.614560175739
35 6.075640144504545 0.04039145261049271 0.07498987019062042 60756.40144504545 3.2826655751068804e-22 6.094523703575228e-22 4554.45288193744
36 6.124125535305019 0.07175678759813309 0.07537428289651871 61241.25535305019 5.739790931130394e-22 6.0291526403441e-22 4590.798752102713
37 6.171976886035096 0.04707510024309158 0.07596883177757262 61719.76886035096 3.7073528840107627e-22 5.982850087012705e-22 4626.669329861391
38 6.219217087054011 -0.03748666122555733 0.07449670881032942 62192.1708705401 -2.9075459247470167e-22 5.778124672273162e-22 4662.081774403307
39 6.265869028721 -0.07940465956926346 0.07827988266944885 62658.69028721 -6.067427800216933e-22 5.981481929181191e-22 4697.053244918291
40 6.3119556013953035 0.053983382880687714 0.07927829772233963 63119.556013953035 4.0649338280511676e-22 5.969633932614057e-22 4731.60090059618
41 6.357499695436156 0.03539026528596878 0.08224039524793626 63574.99695436156 2.6268324751146477e-22 6.104270178759966e-22 4765.741900626804
42 6.4025242012027945 -0.09096673130989073 0.0819448307156563 64025.24201202794 -6.657349951906234e-22 5.997087143489822e-22 4799.493404199996
43 6.4470520090544525 -0.15588918328285217 0.0895744115114212 64470.52009054452 -1.125161566475375e-21 6.465213496527887e-22 4832.872570505587
44 6.49110600935037 -0.1116236224770546 0.08825283497571945 64911.06009350369 -7.947672510551684e-22 6.283657660894859e-22 4865.8965587334105
45 6.534709092449779 0.1249457001686096 0.08950391411781311 65347.09092449779 8.777888345637948e-22 6.287974404589503e-22 4898.582528073298
46 6.577884148711914 0.30680111050605774 0.09390796720981598 65778.84148711913 2.127187348506811e-21 6.511053347988737e-22 4930.947637715078
47 6.620654068496014 0.6930274963378905 0.09399581700563431 66206.54068496014 4.743183512709014e-21 6.433213860065461e-22 4963.009046848587
48 6.66304174216131 0.7011651396751404 0.09473899751901625 66630.41742161309 4.738015776853439e-21 6.401842298325724e-22 4994.78391466365
49 6.705067894042856 0.3490293025970459 0.09782925248146056 67050.67894042857 2.329039127332732e-21 6.528052376452902e-22 5026.2877766438205
50 6.74674367393982 -0.011066059581935404 0.09796152263879776 67467.4367393982 -7.293329554344891e-23 6.456369251946616e-22 5057.528990959385
51 6.788074423254033 -0.07243327796459198 0.10174012184143066 67880.74423254032 -4.715917554028322e-22 6.623999907549759e-22 5088.511561659695
52 6.829064572742552 -0.13151536881923676 0.10227320343255995 68290.64572742552 -8.4600966288818775e-22 6.579011953910835e-22 5119.238810151838
53 6.86971855316244 -0.1611442267894745 0.1031517907977104 68697.1855316244 -1.024372983978086e-21 6.557225775154836e-22 5149.714057842909
54 6.910040795270753 -0.0793367251753807 0.10575143247842787 69100.40795270752 -4.984645781113852e-22 6.644254985129116e-22 5179.9406261399945
55 6.950035729824551 0.09473942965269087 0.10643776506185532 69500.35729824551 5.884071562722866e-22 6.6106311690515e-22 5209.9218364501885
56 6.989707787580889 -0.07627114653587341 0.10811785608530045 69897.07787580889 -4.683424135488193e-22 6.638968989786624e-22 5239.661010180576
57 7.029061399296828 -0.03662005066871643 0.11128783226013184 70290.61399296828 -2.2235429450701013e-22 6.757316545865787e-22 5269.161468738253
58 7.068100995729425 -0.2551734149456024 0.11227916181087493 70681.00995729426 -1.5323260595727315e-21 6.742406360257558e-22 5298.426533530304
59 7.106831007635741 0.1168159395456314 0.11520101875066756 71068.3100763574 6.938592526256173e-22 6.842670022854531e-22 5327.459525963824
60 7.145255865772833 -0.23742184042930603 0.11632249504327774 71452.55865772832 -1.39510325386977e-21 6.835171146836742e-22 5356.263767445901
61 7.1833800008977535 0.06980081647634506 0.11864964663982391 71833.80000897753 4.058112429757183e-22 6.898108505343076e-22 5384.842579383623
62 7.221207843767571 0.027886809781193733 0.11944640427827836 72212.07843767571 1.6043547284903127e-22 6.87186540908152e-22 5413.199283184086
63 7.258743825139336 -0.049641285091638565 0.12407074123620986 72587.43825139337 -2.826450157127781e-22 7.064276547528643e-22 5441.337200254376
64 7.295992375770108 -0.3190031349658966 0.12315424531698226 72959.92375770108 -1.7978251966403623e-21 6.94067803840765e-22 5469.25965200158
65 7.332957926416943 0.1167612001299858 0.1268012374639511 73329.57926416943 6.514204955144021e-22 7.074347030404786e-22 5496.969959832791
66 7.369644907836903 0.04951371997594833 0.12897072732448575 73696.44907836903 2.7349770442126197e-22 7.123924010945171e-22 5524.4714451551
67 7.406057750787043 0.06476953625679016 0.12975560128688812 74060.57750787043 3.5425652138136787e-22 7.096973453599765e-22 5551.7674293755945
68 7.442200886024422 -0.089059479534626 0.13138701021671295 74422.00886024423 -4.823903708647893e-22 7.116572982061294e-22 5578.861233901366
69 7.478078744306096 -0.021402891725301743 0.1338719129562378 74780.78744306095 -1.1481896856610603e-22 7.181756167759169e-22 5605.756180139501
70 7.513695756389123 0.07635602355003358 0.13598136603832245 75136.95756389124 4.0574889576351916e-22 7.225924890956422e-22 5632.4555894970945
71 7.549056353030561 0.04726191237568855 0.13546253740787506 75490.56353030562 2.4879818663650092e-22 7.131077006861696e-22 5658.962783381231
72 7.584164964987469 -0.0820358172059059 0.13658107817173004 75841.64964987469 -4.278674232735075e-22 7.123546272304157e-22 5685.281083199002
73 7.619026023016899 -0.2303636074066162 0.13970379531383514 76190.26023016899 -1.190518673205529e-21 7.219889413575271e-22 5711.413810357496
74 7.6536439578759135 0.14992108941078186 0.14118540287017822 76536.43957875913 7.6779887869577e-22 7.230603408631412e-22 5737.3642862638035
75 7.688023200321567 -0.0031247355509549375 0.1401223391294479 76880.23200321567 -1.586007193434003e-23 7.112123064372181e-22 5763.135832325013
76 7.72216818111092 -0.060186930000782006 0.14173613488674164 77221.6818111092 -3.027923750025693e-22 7.130554907100829e-22 5788.7317699482155
77 7.756083331001024 -0.28176021575927734 0.1426536440849304 77560.83331001025 -1.4051283394149291e-21 7.114087327211545e-22 5814.155420540498
78 7.789773080748938 -0.12707450985908508 0.14733541011810303 77897.73080748938 -6.282465098650238e-22 7.284148275596315e-22 5839.4101055089495
79 7.823241861111722 -0.08505115658044815 0.14741568267345428 78232.41861111722 -4.1689622688767525e-22 7.225891376621432e-22 5864.499146260661
80 7.856494102846429 -0.03968433663249016 0.1513153314590454 78564.9410284643 -1.928780479258818e-22 7.354389219948287e-22 5889.425864202721
81 7.889534236710115 0.15865112841129303 0.1528884470462799 78895.34236710116 7.64648233984471e-22 7.368739333986653e-22 5914.193580742216
82 7.92236669345984 0.15276162326335907 0.1562172919511795 79223.6669345984 7.301727799152293e-22 7.466902478391059e-22 5938.805617286237
83 7.954995903852659 -0.1816997081041336 0.15686097741127014 79549.95903852659 -8.61381546611478e-22 7.436288849075709e-22 5963.265295241874
84 7.98742629864563 -0.08557520061731337 0.156712606549263 79874.2629864563 -4.023976658775726e-22 7.369049284618974e-22 5987.575936016215
85 8.019662308595805 -0.11406721919775008 0.16056033968925476 80196.62308595805 -5.320714376916631e-22 7.489405928851524e-22 6011.740861016346
86 8.051708364460243 -0.03889870271086693 0.16300125420093536 80517.08364460243 -1.8000323072185933e-22 7.542861412621516e-22 6035.763391649358
87 8.083568896996002 -0.04590675607323647 0.16929294168949127 80835.68896996003 -2.1076164104987596e-22 7.772376281982546e-22 6059.646849322341
88 8.115248336960137 -0.20781974494457245 0.17271310091018677 81152.48336960137 -9.46682684288266e-22 7.867611521947251e-22 6083.394555442382
89 8.146751115109701 0.27979332208633423 0.17065420746803284 81467.51115109702 1.2647063586629173e-21 7.713817460261084e-22 6107.009831416568
90 8.17808166220175 0.2209743708372116 0.1746097356081009 81780.8166220175 9.91197675732969e-22 7.832255090912685e-22 6130.495998651987
91 8.20924440899335 -0.2637026607990265 0.18135303258895877 82092.44408993349 -1.173895384106364e-21 8.073088349006741e-22 6153.8563785557335
92 8.240243786241543 -0.11812151968479156 0.1860227733850479 82402.43786241542 -5.218794062404031e-22 8.218777982237671e-22 6177.094292534889
93 8.271084224703392 0.13454152643680573 0.19259513914585116 82710.84224703391 5.9000096069988665e-22 8.445817446225665e-22 6200.213061996546
94 8.301770155135948 -0.12555332481861115 0.1934271603822708 83017.70155135948 -5.465225199733652e-22 8.419713239464994e-22 6223.2160083477875
95 8.332306008296271 -0.06868141144514084 0.1955260932445526 83323.06008296271 -2.9677686564575854e-22 8.448810221587846e-22 6246.106452995706
96 8.362696214941417 -0.016884183511137962 0.19317832589149475 83626.96214941418 -7.24283642266914e-23 8.286802935505801e-22 6268.887717347389
97 8.392944788187377 0.19900113344192505 0.1919051855802536 83929.44788187377 8.475163249338999e-22 8.172957349823286e-22 6291.562809735665
98 8.423053894497395 -0.14872139692306519 0.19744764268398285 84230.53894497395 -6.288622884128779e-22 8.34899207436913e-22 6314.133354195948
99 8.453024578162477 0.05405312404036522 0.19474202394485476 84530.24578162478 2.269435220573498e-22 8.176297224489428e-22 6336.600133555081
100 8.482857707326042 -0.14998869597911835 0.20096774399280548 84828.57707326043 -6.253100658821977e-22 8.3784416162824305e-22 6358.963798595235
101 8.512554150131507 -0.09409809857606889 0.19890926778316495 85125.54150131506 -3.895671493189339e-22 8.234865273155582e-22 6381.2250000985805
102 8.5421147747223 0.020564381033182144 0.20611430704593656 85421.147747223 8.454853601082477e-23 8.474197634978827e-22 6403.384388847302
103 8.571540449241834 -0.09084630012512208 0.20701900124549863 85715.40449241834 -3.709460419669156e-22 8.453055217240031e-22 6425.442615623564
104 8.60083204183353 0.20895314216613767 0.20763427019119263 86008.3204183353 8.474014980943191e-22 8.4205286310478425e-22 6447.400331209542
105 8.629990420640809 -0.06194525212049484 0.21866585314273837 86299.90420640809 -2.495218905729156e-22 8.808087014285243e-22 6469.258186387413
106 8.6590164538071 -0.16918630897998807 0.2215295732021332 86590.164538071 -6.769386964491918e-22 8.863716066182155e-22 6491.016831939355
107 8.687911009475812 -0.2414279729127884 0.2237470746040344 86879.11009475811 -9.595732112781218e-22 8.89299182284217e-22 6512.676918647535
108 8.716674955790367 0.4993157088756561 0.2277626991271973 87166.74955790368 1.9714909203980616e-21 8.992949457683632e-22 6534.239097294128
109 8.745309160894188 0.5861483216285706 0.22801233828067777 87453.09160894188 2.299208976143054e-21 8.943948067439923e-22 6555.70401866131
110 8.773814492930692 0.6269345283508301 0.2294965088367462 87738.14492930692 2.4432423543894577e-21 8.943766298044417e-22 6577.072333531253
111 8.8021918200433 0.5959387421607971 0.23232561349868772 88021.91820043299 2.30749738466089e-21 8.995735762943734e-22 6598.344692686132
112 8.83044201037543 0.09708595275878906 0.24058952927589417 88304.4201037543 3.7351905825319833e-22 9.256207705349727e-22 6619.521746908118
113 8.85856593207051 -0.5384398698806763 0.2404762953519821 88585.6593207051 -2.058408760851755e-21 9.193199479068867e-22 6640.604146979394
114 8.88656445327195 -0.17467853426933289 0.24228693544864652 88865.6445327195 -6.63579565221771e-22 9.204145200579153e-22 6661.592543682121
115 8.914438442123178 0.16093739867210388 0.24685020744800568 89144.38442123178 6.075615079210985e-22 9.318945472289565e-22 6682.487587798484
116 8.942188766767611 0.03889239579439163 0.250680536031723 89421.88766767611 1.4591444398977186e-22 9.40490044056413e-22 6703.289930110654
117 8.969816295348668 0.0032005780376493926 0.2789452373981476 89698.16295348668 1.1933905052054434e-23 1.0400952386329354e-21 6724.000221400801
118 8.997321896009769 0.3170130252838135 0.2822580337524414 89973.21896009769 1.1748213882506203e-21 1.0460225562058791e-21 6744.619112451101
119 9.024706436894338 -0.1419785767793655 0.2904265820980072 90247.06436894338 -5.229713598481709e-22 1.069772553163989e-21 6765.147254043732
120 9.051970786145784 -0.16870851814746857 0.2865889072418213 90519.70786145783 -6.176920022235686e-22 1.049287124758741e-21 6785.585296960858
121 9.07911581190754 0.15252844989299774 0.3003513514995575 90791.15811907541 5.551176034029609e-22 1.0931096627562914e-21 6805.933891984663
122 9.106142382323021 -0.49073705077171326 0.2949510216712952 91061.42382323022 -1.7754204996708953e-21 1.0670930378103756e-21 6826.193689897317
123 9.133051365535641 0.25457483530044556 0.3049008250236511 91330.51365535641 9.155981907312776e-22 1.0965995260869379e-21 6846.3653414809905
124 9.159843629688831 0.4256037771701813 0.30072614550590515 91598.4362968883 1.5217755733892581e-21 1.0752670137309425e-21 6866.449497517864
125 9.186520042926002 -0.1486847847700119 0.31341427564620966 91865.20042926002 -5.285495767937472e-22 1.114135404037211e-21 6886.446808790106
126 9.213081473390575 0.549211323261261 0.3172692656517029 92130.81473390576 1.9411134278144283e-21 1.1213454743291585e-21 6906.357926079892
127 9.239528789225975 -0.2182472795248032 0.3222767114639282 92395.28789225976 -7.669559968993411e-22 1.1325321307850162e-21 6926.183500169397
128 9.265862858575616 0.5147390365600586 0.31694445013999933 92658.62858575616 1.798608427383681e-21 1.1074717838459034e-21 6945.924181840792
129 9.292084549582922 -0.1992889791727066 0.32376453280448914 92920.84549582923 -6.924337562032381e-22 1.1249266894027122e-21 6965.580621876254
130 9.31819473039131 -0.0541306771337986 0.3222878873348236 93181.9473039131 -1.8702564038752976e-22 1.1135293646697002e-21 6985.1534710579535
131 9.3441942691442 -0.41411077976226807 0.3267768919467926 93441.942691442 -1.4228334692877353e-21 1.1227650222450992e-21 7004.643380168066
132 9.370084033985009 -0.21813182532787323 0.32315561175346375 93700.8403398501 -7.453380909462535e-22 1.1041955312153978e-21 7024.050999988763
133 9.395864893057162 -0.3284813463687897 0.33961641788482666 93958.64893057162 -1.1162422080680544e-21 1.1540813029008615e-21 7043.376981302221
134 9.421537714504078 0.7991803884506226 0.3259395360946655 94215.37714504078 2.7009869804699445e-21 1.1015766354312862e-21 7062.621974890613
135 9.447103366469172 -0.1401212066411972 0.34082266688346863 94471.03366469171 -4.710074632960353e-22 1.1456511374016002e-21 7081.786631536111
136 9.472562717095864 -0.18242865800857544 0.33892759680747986 94725.62717095863 -6.099290790291891e-22 1.1331651465015172e-21 7100.871602020887
137 9.497916634527584 -0.35696721076965326 0.35227042436599726 94979.16634527584 -1.1871152219475427e-21 1.1714957855797183e-21 7119.877537127124
138 9.523165986907738 -0.6398411989212036 0.355946809053421 95231.65986907738 -2.1165607936127638e-21 1.1774531898294014e-21 7138.805087636985
139 9.548311642379753 0.019495436921715736 0.3588147759437561 95483.11642379753 6.415064938012157e-23 1.180696845954505e-21 7157.654904332649
